,gross_profit_growth_q,ebit_growth_q,net_income_growth_q,eps_growth_q,eps_diluted_growth_q,weighted_average_shares_diluted_growth_q,operating_cash_flow_growth_q,asset_growth_q,book_value_per_share_growth_q,debt_growth_q,trade_and_non-trade_receivables_growth_q,inventory_growth_q,dividends_per_basic_common_share_growth_q,free_cash_flow_growth_q,research_and_development_(r&d)_expenses_growth_q,"selling,_general_and_administrative_(sg&a)_expenses_growth_q",operating_income_growth_q,weighted_average_shares_growth_q,revenue_q,revenue_growth_q,cost_of_revenue_q,gross_profit_q,research_and_development_(r&d)_expenses_q,"selling,_general_and_administrative_(sg&a)_expenses_q",operating_expenses_q,operating_income_q,interest_expense_q,earnings_before_tax_q,income_tax_expense_q,net_income_to_non-controlling_interests_q,net_income_from_discontinued_operations_q,net_income_q,preferred_dividends_income_statement_impact_q,net_income_common_q,eps_q,eps_diluted_q,weighted_average_shares_q,weighted_average_shares_diluted_q,dividends_per_common_share_q,gross_margin_q,ebitda_margin_q,ebit_margin_q,profit_margin_q,free_cash_flow_margin_q,ebitda_q,ebit_q,consolidated_income_q,revenue_t,revenue_growth_t,cost_of_revenue_t,gross_profit_t,research_and_development_(r&d)_expenses_t,"selling,_general_and_administrative_(sg&a)_expenses_t",operating_expenses_t,operating_income_t,interest_expense_t,earnings_before_tax_t,income_tax_expense_t,net_income_to_non-controlling_interests_t,net_income_from_discontinued_operations_t,net_income_t,preferred_dividends_income_statement_impact_t,net_income_common_t,eps_t,eps_diluted_t,weighted_average_shares_t,weighted_average_shares_diluted_t,dividends_per_common_share_t,gross_margin_t,ebitda_margin_t,ebit_margin_t,profit_margin_t,free_cash_flow_margin_t,ebitda_t,ebit_t,consolidated_income_t,book_value_per_share_q,tangible_book_value_per_share_q,fcf_per_share_q,interest_debt_per_share_q,cash_per_share_q,debt_to_equity_ratio_q,total_debt_to_total_assets_q,interest_coverage_q,current_ratio_q,income_quality_q,payout_ratio_q,intangible_assets_out_of_total_assets_q,"selling,_general_and_administrative_expense_of_revenue_q",research_and_development_expense_of_revenue_q,working_capital_q,tangible_asset_value_q,net_current_asset_value_q,invested_capital_q,average_receivables_q,average_payables_q,average_inventory_q,capex/operating_cf_q,roe_t,roa_t,roic_t,return_on_sales_t,piotroski_f-score_t,asset_turnover_t,income_quality_t,average_days_of_payables_t,average_days_of_receivables_t,days_of_inventory_on_hand_t,account_receivables_turnover_t,account_payables_turnover_t,inventory_turnover_t,payout_ratio_t,ev/ebit_t,"selling,_general_and_administrative_expense_of_revenue_t",research_and_development_expense_of_revenue_t,invested_capital_average_t,average_equity_t,average_assets_t,fcf_per_share_t,sales_per_share_t,interest_coverage_t,return_on_tangible_assets_t,capex/operating_cf_t,ticker,price,sma_50,market_cap
2018-06-30,0.6433,6.1973,29.223,29.25,29.0,0.0033,0.8005,0.0967,0.2517,-0.079,0.712,0.9958,0.1012,4.0088,0.3678,-0.0408,6.5439,0.003,4238077000.0,0.6222,2026935000.0,2211142000.0,47478000.0,104083000.0,1246211000.0,964931000.0,63444000.0,892936000.0,196205000.0,0.0,0.0,696731000.0,0.0,696731000.0,1.21,1.2,576135000.0,580375000.0,0.185,0.5217,0.426,0.2257,0.164,0.0608,1805054000.0,956380000.0,696731000.0,13904522000.0,0.427,6504426000.0,7400096000.0,136051000.0,427503000.0,4869829000.0,2530267000.0,257844000.0,2265628000.0,-1600701000.0,0.0,0.0,3866329000.0,0.0,3866329000.0,6.72,6.67,576135000.0,580375000.0,0.689,0.5322,0.421,0.1815,0.278,0.0364,5848704000.0,2523472000.0,3866329000.0,30.292,55.703,0.447,11.1689,1.75,0.3687,0.2005,15.0744,0.985,2.7868,0.153,0.0,0.0246,0.0112,-65449000.0,32092380000.0,-10408134000.0,33221661000.0,1511222000.0,1976061000.0,503596000.0,-0.8673,0.24,0.127,0.0564,0.181,7.0,0.458,1.4957,61.346,50.0856,17.6139,9.2008,7.0365,27.6105,0.103,31.0,0.0307,0.0098,32892653250.0,16124642500.0,30367820000.0,0.88,24.134,9.7868,0.1427,-0.9124,EOG,124.43,119.5388577142857,71688478050.0
2018-03-31,0.4246,6.893,21.3933,21.2,21.0,0.002,0.7284,0.0523,0.2052,-0.079,0.4338,0.861,0.0,3.2871,-0.3877,-0.0261,7.1171,0.0032,3681162000.0,0.4101,1684756000.0,1996406000.0,34836000.0,94698000.0,1121818000.0,874588000.0,61956000.0,813359000.0,174770000.0,0.0,0.0,638589000.0,0.0,638589000.0,1.11,1.1,575775000.0,579726000.0,0.168,0.5423,0.441,0.2378,0.173,0.0301,1623906000.0,875315000.0,638589000.0,12278917000.0,0.3786,5744405000.0,6534512000.0,123284000.0,431927000.0,4841268000.0,1693244000.0,264813000.0,1435159000.0,-1757492000.0,0.0,0.0,3192651000.0,0.0,3192651000.0,5.55,5.51,575775000.0,579726000.0,0.672,0.5322,0.411,0.1384,0.26,0.0245,5041914000.0,1699972000.0,3192651000.0,29.249,53.39,0.193,11.1758,1.4174,0.3821,0.2093,14.128,1.264,2.4306,0.151,0.0,0.0257,0.0095,748339000.0,30740517000.0,-10314781000.0,33522424000.0,1444606000.0,1736263000.0,449461500.0,-0.9285,0.21,0.108,0.0386,0.138,7.0,0.414,1.5409,56.9442,50.5962,17.3815,8.4998,7.072,27.3192,0.121,39.0,0.0352,0.01,32556919000.0,15236972750.0,29660629250.0,0.522,21.326,6.4195,0.1177,-0.9389,EOG,105.269997,103.60088238235295,60611832522.675
2017-12-31,0.3919,4.8857,18.0736,18.625,18.5,0.0136,0.6497,0.0182,0.1571,-0.0858,0.3134,0.3824,0.0,3.2427,-0.4134,0.1451,5.5116,0.0065,3340439000.0,0.3907,1531051000.0,1809388000.0,22941000.0,117005000.0,1333476000.0,475912000.0,63362000.0,413353000.0,-2017115000.0,0.0,0.0,2430468000.0,0.0,2430468000.0,4.23,4.2,575370000.0,579413000.0,0.168,0.5417,0.407,0.1427,0.728,0.0811,1358460000.0,476715000.0,2430468000.0,11208320000.0,0.465,5268820000.0,5939500000.0,145342000.0,434467000.0,5013098000.0,926402000.0,274372000.0,661182000.0,-1921397000.0,0.0,0.0,2582579000.0,0.0,2582579000.0,4.49,4.46,574620000.0,578693000.0,0.672,0.5299,0.388,0.0835,0.23,0.0126,4344941000.0,935554000.0,2582579000.0,28.301,51.85,0.471,11.1008,1.4499,0.3922,0.2141,7.5237,1.203,0.5462,0.04,0.0,0.035,0.0069,553566000.0,29833078000.0,-10270697000.0,32660379000.0,1406907000.0,1679478500.0,416941000.0,-0.796,0.178,0.088,0.0217,0.083,7.0,0.383,1.6516,60.152,52.0225,15.7571,7.9666,6.6737,26.8823,0.15,73.0,0.0388,0.013,32331310000.0,14508870750.0,29278493500.0,0.246,19.506,3.4098,0.0985,-0.9669,EOG,107.910004,102.30636436363633,62088179001.48
2017-09-30,0.2623,2.0679,1.5292,1.4857,1.4857,0.0564,0.2656,0.1272,0.1247,-0.0858,0.3514,-0.1993,0.0,-2.2539,0.2098,0.1835,2.1104,0.0492,2644844000.0,0.2484,1261684000.0,1383160000.0,30796000.0,111717000.0,1168324000.0,214836000.0,69082000.0,145980000.0,45439000.0,0.0,0.0,100541000.0,0.0,100541000.0,0.17,0.17,574783000.0,578736000.0,0.168,0.523,0.401,0.0813,0.038,-0.0502,1061284000.0,215062000.0,100541000.0,10269920000.0,0.4577,4839891000.0,5430029000.0,161511000.0,419644000.0,5085026000.0,345003000.0,282335000.0,53819000.0,44060000.0,0.0,0.0,9759000.0,0.0,9759000.0,0.02,0.02,574783000.0,578736000.0,0.671,0.5287,0.363,0.0327,0.001,-0.0064,3726320000.0,336154000.0,9759000.0,24.222,50.115,-0.231,11.112,1.4721,0.4588,0.2217,3.1131,1.268,9.5619,0.988,0.0,0.0422,0.0116,583939000.0,28805305000.0,-12119078000.0,32166149000.0,1081862000.0,1465975500.0,386841500.0,-1.138,0.001,0.0,0.0084,0.033,6.0,0.352,383.4955,58.1343,44.1961,12.2266,9.4928,7.0055,26.5481,33.55,182.0,0.0409,0.0157,32330808500.0,13933447750.0,29145024250.0,-0.115,17.867,1.1906,0.0004,-1.0176,EOG,96.739998,88.95599997142857,55604506270.434
2017-06-30,0.5488,1.4298,1.0788,1.0755,1.0755,0.0569,1.1433,0.1329,0.0986,0.0001,0.1912,-0.3219,0.0,1.4602,0.1359,0.1106,1.4439,0.0495,2612472000.0,0.4712,1266914000.0,1345558000.0,34711000.0,108507000.0,1217650000.0,127908000.0,70413000.0,62467000.0,39414000.0,0.0,0.0,23053000.0,0.0,23053000.0,0.04,0.04,574439000.0,578483000.0,0.168,0.5151,0.382,0.0509,0.009,0.0197,998264000.0,132880000.0,23053000.0,9743580000.0,0.3725,4600929000.0,5142651000.0,156170000.0,402324000.0,5205964000.0,-63313000.0,284111000.0,-364411000.0,-83629000.0,0.0,0.0,-280782000.0,0.0,-280782000.0,-0.5,-0.5,574439000.0,578483000.0,0.671,0.5278,0.345,-0.0082,-0.029,0.0177,3363155000.0,-80300000.0,-280782000.0,24.201,50.943,0.09,12.1628,2.8714,0.5026,0.2388,1.8872,1.243,46.7781,4.2,0.0,0.0415,0.0133,661119000.0,29263617000.0,-11978529000.0,31878724000.0,1025023000.0,1460410500.0,416012000.0,-0.9523,-0.021,-0.01,-0.0016,-0.008,6.0,0.344,-12.6103,60.5052,41.7481,12.5942,9.5057,6.6718,23.4214,-1.342,-718.0,0.0413,0.016,31729108250.0,13402459750.0,28332428250.0,0.3,16.962,-0.2826,-0.0107,-0.9513,EOG,90.519997,90.31388863888886,51998216556.683
2017-03-31,1.5323,1.1726,1.0604,1.0581,1.0581,0.0583,2.0798,0.1091,0.0695,0.0001,0.5207,-0.417,0.0,0.8277,0.9073,-0.0328,1.1688,0.0498,2610565000.0,0.9275,1209171000.0,1401394000.0,56894000.0,97238000.0,1293648000.0,107746000.0,71515000.0,39382000.0,10865000.0,0.0,0.0,28517000.0,0.0,28517000.0,0.05,0.05,573935000.0,578593000.0,0.168,0.5368,0.355,0.0425,0.011,-0.0186,926933000.0,110897000.0,28517000.0,8906848000.0,0.1429,4240979000.0,4665869000.0,152018000.0,391522000.0,5145263000.0,-479394000.0,284806000.0,-807155000.0,-210762000.0,0.0,0.0,-596393000.0,0.0,-596393000.0,-1.07,-1.07,573935000.0,578593000.0,0.67,0.5239,0.328,-0.0586,-0.067,0.0011,2918213000.0,-522349000.0,-596393000.0,24.268,50.898,-0.085,12.1731,2.6947,0.5016,0.2392,1.5507,1.67,31.4917,3.36,0.0,0.0372,0.0218,1362069000.0,29211974000.0,-11889667000.0,32619988000.0,983868500.0,1369450000.0,426560000.0,-1.054,-0.046,-0.022,-0.0117,-0.059,7.0,0.324,-4.9724,63.8003,48.6475,12.8756,9.0529,6.504,20.8806,-0.626,-118.0,0.044,0.0171,31340532250.0,12941206250.0,27474158500.0,0.016,15.519,-1.8341,-0.0221,-0.9968,EOG,97.550003,97.35777775,55987360971.805
2016-12-31,0.5487,0.6347,0.4993,0.5385,0.5385,0.0462,0.3068,0.0863,0.0325,0.0497,0.307,-0.4156,0.0,1.2812,0.1192,-0.0627,0.6801,0.0462,2402039000.0,0.3369,1102122000.0,1299917000.0,39110000.0,102182000.0,1405404000.0,-105487000.0,71325000.0,-194010000.0,-51658000.0,0.0,0.0,-142352000.0,0.0,-142352000.0,-0.24,-0.24,571651000.0,571651000.0,0.168,0.5412,0.308,-0.0511,-0.059,0.0266,739839000.0,-122685000.0,-142352000.0,7650632000.0,-0.1264,3832751000.0,3817881000.0,124953000.0,394815000.0,5043162000.0,-1225281000.0,281681000.0,-1557505000.0,-460819000.0,0.0,0.0,-1096686000.0,0.0,-1096686000.0,-1.98,-1.98,553384000.0,553384000.0,0.67,0.499,0.298,-0.1668,-0.143,-0.0292,2277593000.0,-1275824000.0,-1096686000.0,24.458,51.254,0.112,12.2214,2.7987,0.4997,0.2384,-1.7201,1.67,-5.6532,-0.7,0.0,0.0425,0.0163,1357925000.0,29299201000.0,-11932404000.0,32658373000.0,1073465000.0,1491889500.0,474476000.0,-0.9207,-0.087,-0.041,-0.0298,-0.167,7.0,0.286,-2.1511,72.1269,58.0288,16.6988,7.127,5.1281,16.1244,-0.338,-50.0,0.0516,0.0163,30962429750.0,12560520500.0,26755770750.0,-0.404,13.825,-4.5293,-0.0405,-1.0948,EOG,101.099998,100.30705888235292,57793914956.698
2016-09-30,0.0591,0.9676,0.9534,0.9531,0.9531,0.0035,-0.3287,-0.0631,-0.115,0.0865,-0.1807,-0.3492,0.0,1.4693,-0.1879,0.0378,0.9689,0.0035,2118504000.0,-0.0248,1022722000.0,1095782000.0,25455000.0,94397000.0,1289262000.0,-193480000.0,70858000.0,-272250000.0,-82250000.0,0.0,0.0,-190000000.0,0.0,-190000000.0,-0.35,-0.35,547838000.0,547838000.0,0.168,0.5172,0.33,-0.0951,-0.09,0.05,698119000.0,-201392000.0,-190000000.0,7045354000.0,-0.393,3688055000.0,3357299000.0,120789000.0,401647000.0,4806846000.0,-1449547000.0,273349000.0,-1762321000.0,-523691000.0,0.0,0.0,-1238630000.0,0.0,-1238630000.0,-2.26,-2.26,547838000.0,547838000.0,0.67,0.4765,0.28,-0.2113,-0.176,-0.073,1971378000.0,-1488972000.0,-1238630000.0,21.536,46.647,0.193,12.7522,1.9143,0.5921,0.2734,-2.8422,1.58,-3.9978,-0.48,0.0,0.0446,0.012,1004801000.0,25554921000.0,-11018845000.0,29759348000.0,1021650000.0,1428907000.0,544959500.0,-0.8607,-0.101,-0.047,-0.0398,-0.211,4.0,0.269,-1.752,67.1546,47.6724,22.2598,6.8961,4.9306,12.9282,-0.296,-40.0,0.057,0.0171,30569878250.0,12300884000.0,26173588000.0,-0.939,12.86,-5.4471,-0.0524,-1.2371,EOG,96.709999,91.32083386111111,52981412432.161995
2016-06-30,-0.3135,-7.3088,-56.5349,-54.0,-54.0,-0.0043,-0.433,-0.2377,-0.3105,0.0915,-0.283,-0.2501,0.0,0.7062,-0.3016,0.1868,-8.2723,0.0034,1775740000.0,-0.281,906964000.0,868776000.0,30559000.0,97705000.0,1156949000.0,-288173000.0,71108000.0,-380277000.0,-87719000.0,0.0,0.0,-292558000.0,0.0,-292558000.0,-0.53,-0.53,547335000.0,547335000.0,0.168,0.4892,0.312,-0.1741,-0.165,-0.063,553322000.0,-309169000.0,-292558000.0,7099278000.0,-0.5122,3803146000.0,3296132000.0,126678000.0,398209000.0,10775156000.0,-7479024000.0,263062000.0,-7764992000.0,-2640623000.0,0.0,0.0,-5124369000.0,0.0,-5124369000.0,-9.38,-9.38,547335000.0,547335000.0,0.671,0.4643,-0.594,-1.0567,-0.722,-0.1191,-4218919000.0,-7501930000.0,-5124369000.0,22.028,47.193,-0.204,12.7634,1.4246,0.5794,0.2704,-4.3479,1.431,-1.7198,-0.317,0.0,0.055,0.0172,737860000.0,25830538000.0,-11323716000.0,30324420000.0,1120220000.0,1585067000.0,578494000.0,-1.2222,-0.404,-0.193,-0.2002,-1.057,2.0,0.267,-0.4961,67.1283,48.1022,25.4922,6.3374,4.4789,12.272,-0.072,-7.0,0.0561,0.0178,30859493000.0,12672361750.0,26604169500.0,-1.545,12.971,-28.5177,-0.214,-1.3328,EOG,83.41999799999999,81.85250008333333,45658684605.329994
2016-03-31,-0.4676,-2.5116,-1.7793,-1.7742,-1.7742,0.0032,-0.6964,-0.2408,-0.2921,0.0124,-0.3837,-0.2948,0.0,0.5187,-0.2439,0.1926,-2.6888,0.0032,1354349000.0,-0.4159,800943000.0,553406000.0,29829000.0,100531000.0,1191547000.0,-638141000.0,68390000.0,-710968000.0,-239192000.0,0.0,0.0,-471776000.0,0.0,-471776000.0,-0.86,-0.86,546715000.0,546715000.0,0.168,0.4086,0.211,-0.4745,-0.348,-0.2079,286313000.0,-642578000.0,-471776000.0,7793239000.0,-0.521,4100294000.0,3692945000.0,139874000.0,382828000.0,10844170000.0,-7151225000.0,252438000.0,-7396193000.0,-2569650000.0,0.0,0.0,-4826543000.0,0.0,-4826543000.0,-8.84,-8.84,546715000.0,546715000.0,0.671,0.4739,-0.489,-0.9167,-0.619,-0.143,-3814008000.0,-7143755000.0,-4826543000.0,22.691,48.176,-0.515,12.7774,1.2227,0.5631,0.2652,-9.3958,1.528,-0.6181,-0.195,0.0,0.0742,0.022,817840000.0,26338423000.0,-11567123000.0,31107578000.0,1023603500.0,1682033000.0,651566000.0,-1.9657,-0.344,-0.169,-0.1852,-0.917,2.0,0.272,-0.6063,55.3607,36.5609,25.2409,7.6135,4.6332,11.9608,-0.076,-6.0,0.0491,0.0179,32438284000.0,14014997250.0,28617559000.0,-2.039,14.255,-28.299,-0.196,-1.3809,EOG,72.58000200000001,71.37485665714286,39680575793.43
2015-12-31,-0.7296,-1.2803,-1.6395,-1.642,-1.642,-0.0047,-0.7082,-0.2242,-0.2718,0.1262,-0.477,-0.1524,0.0,-3.1858,-0.2263,-0.1696,-1.2688,0.0034,1796761000.0,-0.6132,957426000.0,839335000.0,34946000.0,109014000.0,1169088000.0,-329753000.0,62993000.0,-398826000.0,-114530000.0,0.0,0.0,-284296000.0,0.0,-284296000.0,-0.52,-0.52,546390000.0,546390000.0,0.168,0.4671,0.241,-0.1869,-0.158,-0.1263,433624000.0,-335833000.0,-284296000.0,8757428000.0,-0.5144,4578485000.0,4178943000.0,149494000.0,366594000.0,10865022000.0,-6686079000.0,237393000.0,-6921556000.0,-2397041000.0,0.0,0.0,-4524515000.0,0.0,-4524515000.0,-8.29,-8.29,545697000.0,545697000.0,0.672,0.4772,-0.385,-0.7633,-0.517,-0.1619,-3370519000.0,-6684163000.0,-4524515000.0,23.688,49.361,-0.415,12.1808,1.315,0.5142,0.2468,-5.3313,1.425,-2.1661,-0.323,0.0,0.0607,0.0194,772957000.0,26970470000.0,-11435191000.0,31088167000.0,1354960500.0,2166250500.0,652766000.0,-1.3686,-0.296,-0.147,-0.171,-0.763,2.0,0.285,-0.7946,61.3494,38.7868,24.963,6.4632,4.0427,13.4159,-0.081,-7.0,0.0419,0.0171,33754027500.0,15281249750.0,30706066750.0,-2.599,16.048,-28.1565,-0.1811,-1.3944,EOG,70.790001,78.23228585714286,38678948646.39
2015-09-30,-0.6799,-4.5212,-4.6931,-4.6798,-4.7164,-0.0065,-0.5158,-0.2094,-0.253,0.0881,-0.441,-0.0188,0.344,-2.0079,-0.3597,-0.0616,-4.484,0.0036,2172428000.0,-0.5756,1137813000.0,1034615000.0,31344000.0,90959000.0,7257572000.0,-6222957000.0,60571000.0,-6274921000.0,-2199182000.0,0.0,0.0,-4075739000.0,0.0,-4075739000.0,-7.47,-7.47,545920000.0,545920000.0,0.168,0.4762,-2.528,-2.8606,-1.876,-0.1038,-5492178000.0,-6214350000.0,-4075739000.0,11606164000.0,-0.3228,5162732000.0,6443432000.0,159715000.0,388865000.0,11573106000.0,-5129674000.0,224135000.0,-5374137000.0,-1578506000.0,0.0,0.0,-3795631000.0,0.0,-3795631000.0,-6.96,-6.96,545920000.0,545920000.0,0.671,0.5552,-0.137,-0.4437,-0.327,-0.0937,-1591885000.0,-5150002000.0,-3795631000.0,24.334,49.966,-0.413,11.7787,1.3604,0.484,0.2357,-102.5961,1.38,-0.2776,-0.022,0.0,0.0419,0.0144,777997000.0,27277247000.0,-11168066000.0,30917807000.0,1566101000.0,2168458000.0,666575500.0,-1.1993,-0.23,-0.116,-0.1307,-0.444,2.0,0.355,-1.341,49.1096,35.3205,20.7641,7.4109,5.3523,17.4116,-0.096,-9.0,0.0335,0.0138,34782260500.0,16473636500.0,32654121000.0,-1.991,21.26,-22.9772,-0.1515,-1.2136,EOG,72.800003,76.0150004722222,39742977637.76
2015-06-30,-0.4976,-0.9575,-0.9925,-0.9923,-0.9922,0.0018,-0.5413,0.0175,0.0384,0.083,-0.314,-0.0089,0.344,-0.3107,0.0367,-0.0947,-0.9654,0.0044,2469701000.0,-0.4102,1204112000.0,1265589000.0,43755000.0,82324000.0,1225963000.0,39626000.0,60484000.0,-11478000.0,-16746000.0,0.0,0.0,5268000.0,0.0,5268000.0,0.01,0.01,545504000.0,549683000.0,0.168,0.5124,0.388,0.0198,0.002,-0.1541,958233000.0,49006000.0,5268000.0,14552352000.0,-0.0649,5910958000.0,8641394000.0,177326000.0,394837000.0,5761949000.0,2879445000.0,213268000.0,2615904000.0,1232178000.0,0.0,0.0,1383726000.0,0.0,1383726000.0,2.54,2.52,545504000.0,549683000.0,0.629,0.5938,0.461,0.1944,0.095,-0.0438,6705135000.0,2829172000.0,1383726000.0,31.947,62.115,-0.697,11.7331,2.5067,0.3673,0.1889,0.8102,1.641,168.4459,16.8,0.0,0.0333,0.0177,1460137000.0,33884096000.0,-12719135000.0,36639584000.0,1603548000.0,2262978000.0,664135000.0,-1.4288,0.079,0.04,0.0595,0.194,4.0,0.422,4.5492,46.7647,32.728,16.5832,9.0751,6.4306,21.9117,0.248,19.0,0.0271,0.0122,35940509500.0,17582555250.0,34460030000.0,-1.169,26.677,13.2658,0.044,-1.1013,EOG,87.550003,89.4886115,47758876836.512
2015-03-31,-0.5794,-1.1693,-1.2568,-1.2541,-1.2562,-0.0056,-0.5764,0.0794,0.0842,0.1677,-0.297,0.2027,0.7872,-2.6025,-0.1791,0.0173,-1.1595,0.005,2318538000.0,-0.4322,1279134000.0,1039404000.0,39449000.0,84297000.0,1212399000.0,-172995000.0,53345000.0,-236331000.0,-66583000.0,0.0,0.0,-169748000.0,0.0,-169748000.0,-0.31,-0.31,544998000.0,544998000.0,0.168,0.4483,0.315,-0.0789,-0.073,-0.2523,729802000.0,-182986000.0,-169748000.0,16270207000.0,0.0694,6375426000.0,9894781000.0,175779000.0,403445000.0,5910232000.0,3984549000.0,204651000.0,3728195000.0,1643384000.0,0.0,0.0,2084811000.0,0.0,2084811000.0,3.83,3.8,544998000.0,544998000.0,0.586,0.6082,0.485,0.2417,0.128,-0.0337,7896184000.0,3932846000.0,2084811000.0,32.056,63.656,-1.073,12.6611,3.9035,0.395,0.1989,-3.4302,1.549,-5.6587,-0.542,0.0,0.0364,0.017,1698616000.0,34692454000.0,-12428588000.0,36370552000.0,1534123500.0,2414625000.0,699812500.0,-1.6091,0.12,0.061,0.0831,0.242,5.0,0.474,3.5217,48.9511,28.414,17.1439,10.6055,6.7382,23.2494,0.153,14.0,0.0248,0.0108,35391734750.0,17402841500.0,34314614500.0,-1.005,29.854,19.2173,0.0664,-1.0746,EOG,91.690002,90.77749994444443,49970867709.996
2014-12-31,0.3543,0.2334,-0.2337,-0.243,-0.2358,0.0022,0.0546,0.137,0.143,-0.0006,0.0726,0.2545,0.7872,-0.6493,0.4868,0.4416,0.2513,0.0051,4645497000.0,0.2391,1541673000.0,3103824000.0,45167000.0,131285000.0,1877172000.0,1226652000.0,49735000.0,1148593000.0,704005000.0,0.0,0.0,444588000.0,0.0,444588000.0,0.81,0.81,544514000.0,548953000.0,0.168,0.6681,0.476,0.258,0.096,0.0224,2212258000.0,1198328000.0,444588000.0,18035340000.0,0.2449,6708939000.0,11326401000.0,184388000.0,402010000.0,6084578000.0,5241823000.0,201458000.0,4995315000.0,2079828000.0,0.0,0.0,2915487000.0,0.0,2915487000.0,5.36,5.32,543443000.0,548539000.0,0.511,0.628,0.51,0.2881,0.162,0.0223,9193814000.0,5196773000.0,2915487000.0,32.529,63.842,0.191,10.8536,3.8332,0.3337,0.17,24.0943,1.6,4.747,0.207,0.0,0.0283,0.0097,2031713000.0,34762687000.0,-11634084000.0,35201099000.0,1719082000.0,2557483000.0,634932500.0,-0.9508,0.171,0.087,0.1118,0.288,8.0,0.536,2.9666,57.8919,36.0098,14.3001,10.4913,7.052,28.4051,0.095,11.0,0.0223,0.0102,34546088000.0,17043545500.0,33676823000.0,0.74,33.187,25.7958,0.0934,-0.9535,EOG,92.07,93.12142862857145,50133403980.0
2014-09-30,0.543,1.2599,1.3862,1.3882,1.3647,0.0043,0.161,0.1444,0.1856,-0.0639,0.0863,0.1889,0.3298,1.469,0.2416,-0.0175,1.3204,0.0056,5118616000.0,0.4454,1886039000.0,3232577000.0,48955000.0,96931000.0,1446415000.0,1786162000.0,49704000.0,1715120000.0,611502000.0,0.0,0.0,1103618000.0,0.0,1103618000.0,2.03,2.01,543984000.0,549518000.0,0.125,0.6315,0.548,0.3448,0.216,0.0437,2804842000.0,1764824000.0,1103618000.0,17138866000.0,0.2465,6624377000.0,10514489000.0,169599000.0,361791000.0,5518994000.0,4995495000.0,204233000.0,4765804000.0,1714711000.0,0.0,0.0,3051093000.0,0.0,3051093000.0,5.62,5.57,543984000.0,549518000.0,0.438,0.6135,0.517,0.29,0.178,0.0347,8868405000.0,4970037000.0,3051093000.0,32.574,63.423,0.411,10.8639,2.7228,0.3335,0.1713,35.5067,1.446,2.1171,0.062,0.0,0.0189,0.0096,1505970000.0,34500883000.0,-11896269000.0,35550803000.0,1929304000.0,2511528000.0,619451500.0,-0.9043,0.185,0.094,0.1053,0.29,8.0,0.525,2.799,59.1054,42.7869,14.3305,8.8834,6.8241,27.6678,0.078,12.0,0.0211,0.0099,33822696750.0,16470014750.0,32629710750.0,1.093,31.506,24.3351,0.0993,-0.9304,EOG,99.019997,104.79583336111114,53865294048.048004
2014-06-30,0.0859,0.0509,0.0707,0.0656,0.0661,0.0059,0.0232,0.1453,0.155,-0.0639,0.0516,0.0148,0.3298,-2.8912,-0.1081,0.1281,0.0482,0.0057,4187556000.0,0.0905,1668580000.0,2518976000.0,42208000.0,90932000.0,1374246000.0,1144730000.0,51867000.0,1100813000.0,394460000.0,0.0,0.0,706353000.0,0.0,706353000.0,1.3,1.29,543099000.0,548676000.0,0.125,0.6015,0.513,0.2753,0.169,-0.0693,2149282000.0,1152680000.0,706353000.0,15561646000.0,0.1822,6184727000.0,9376919000.0,160073000.0,363514000.0,5397817000.0,3979102000.0,213911000.0,3772239000.0,1362266000.0,0.0,0.0,2409973000.0,0.0,2409973000.0,4.44,4.41,543099000.0,548676000.0,0.406,0.6026,0.5,0.2562,0.155,0.0297,7773300000.0,3986150000.0,2409973000.0,30.765,61.319,-0.535,10.8814,2.265,0.3537,0.1775,22.2238,1.336,2.7388,0.096,0.0,0.0217,0.0101,1187258000.0,33302434000.0,-11869301000.0,34444485000.0,1855601000.0,2431706500.0,662254000.0,-1.1501,0.153,0.076,0.0871,0.256,7.0,0.493,3.4091,62.4251,44.6174,15.6471,8.3863,6.3995,23.498,0.091,17.0,0.0234,0.0103,32883544250.0,15755435250.0,31541307500.0,0.85,28.653,18.6346,0.082,-0.9438,EOG,116.860001,108.9951431142857,63466549683.099
2014-03-31,0.2416,0.3135,0.336,0.3261,0.3297,0.0065,0.5914,0.1384,0.1579,-0.0638,-0.0473,-0.089,0.1059,2.3452,0.0869,0.0625,0.3015,0.0066,4083671000.0,0.2166,1612647000.0,2471024000.0,48058000.0,82862000.0,1386745000.0,1084279000.0,50152000.0,1030789000.0,369861000.0,0.0,0.0,660928000.0,0.0,660928000.0,1.22,1.21,542278000.0,548071000.0,0.094,0.6051,0.496,0.2647,0.162,0.0894,2027432000.0,1080941000.0,660928000.0,15214275000.0,0.2438,6036663000.0,9177612000.0,165188000.0,353189000.0,5251196000.0,3926416000.0,223691000.0,3706656000.0,1343344000.0,0.0,0.0,2363312000.0,0.0,2363312000.0,4.36,4.33,542278000.0,548071000.0,0.375,0.6032,0.502,0.2583,0.155,0.0595,7631426000.0,3930347000.0,2363312000.0,29.567,59.271,0.673,10.8976,3.0745,0.3686,0.1839,21.5533,1.42,3.431,0.077,0.0,0.0203,0.0118,1426834000.0,32141288000.0,-11285498000.0,32987965000.0,1846433500.0,2452720500.0,666448500.0,-0.839,0.156,0.078,0.0906,0.258,8.0,0.499,3.4579,63.5082,43.2231,15.2441,8.2398,6.203,22.8289,0.086,15.0,0.0232,0.0109,32057828500.0,15174494750.0,30484987000.0,1.669,28.056,17.5704,0.0831,-0.8892,EOG,98.084999,92.9708574857143,53189337087.722
2013-12-31,0.3484,3.514,2.1489,2.1323,2.1277,0.0067,0.6307,0.1184,0.1521,-0.0632,0.0013,-0.1755,0.1059,1.9147,-0.3757,0.0506,3.593,0.0074,3749023000.0,0.2448,1457111000.0,2291912000.0,30378000.0,91066000.0,1311588000.0,980324000.0,52510000.0,919082000.0,338888000.0,0.0,0.0,580194000.0,0.0,580194000.0,1.07,1.06,541757000.0,547772000.0,0.094,0.6113,0.503,0.2592,0.155,0.079,1886849000.0,971592000.0,580194000.0,14487118000.0,0.2401,5790388000.0,8696730000.0,161346000.0,348312000.0,5021519000.0,3675211000.0,235460000.0,3436886000.0,1239777000.0,0.0,0.0,2197109000.0,0.0,2197109000.0,4.07,4.02,540341000.0,546227000.0,0.366,0.6003,0.502,0.2535,0.152,0.0186,7273322000.0,3672346000.0,2197109000.0,28.46,56.435,0.547,10.9149,2.4332,0.3835,0.1934,18.503,1.423,3.4492,0.088,0.0,0.0243,0.0081,1210299000.0,30574238000.0,-11083764000.0,32307534000.0,1657735500.0,2166683000.0,623227500.0,-0.8521,0.15,0.074,0.087,0.253,8.0,0.491,3.3359,56.7996,41.7945,14.1914,8.7391,6.6863,23.2453,0.09,14.0,0.024,0.0111,31401433250.0,14605243500.0,29507818250.0,0.497,26.811,15.5965,0.0803,-0.9633,EOG,83.91999799999999,82.84685705714287,45464246356.48599
2013-09-30,0.1948,0.2732,0.301,0.2782,0.2977,0.0096,0.4011,0.0754,0.0674,0.0012,0.1707,-0.1397,0.1059,1.298,-0.142,0.0623,0.2708,0.0094,3541396000.0,0.1985,1446389000.0,2095007000.0,39429000.0,98654000.0,1325238000.0,769769000.0,59382000.0,721555000.0,259057000.0,0.0,0.0,462498000.0,0.0,462498000.0,0.85,0.85,540941000.0,547152000.0,0.094,0.5916,0.483,0.2205,0.131,0.0256,1709737000.0,780937000.0,462498000.0,13749906000.0,0.2015,5645373000.0,8104533000.0,179628000.0,343925000.0,5787707000.0,2316826000.0,242304000.0,2071982000.0,960066000.0,0.0,0.0,1111916000.0,0.0,1111916000.0,2.045,2.03,540941000.0,547152000.0,0.358,0.5894,0.421,0.1683,0.081,-0.0255,5786349000.0,2314286000.0,1111916000.0,27.474,55.731,0.168,11.6705,2.438,0.4248,0.2094,13.1511,1.252,4.3513,0.111,0.0,0.0279,0.0111,844634000.0,30147270000.0,-11093723000.0,31794193000.0,1714679000.0,2199403500.0,611942000.0,-0.955,0.079,0.039,0.0559,0.168,5.0,0.479,5.8956,59.667,49.0966,15.0249,8.0189,6.2517,22.4693,0.175,22.0,0.025,0.0131,30786616250.0,14071819750.0,28698403250.0,-0.649,25.418,9.5512,0.042,-1.0535,EOG,84.639999,81.18399919999997,45785245699.059
2013-06-30,0.2906,0.5737,0.6668,0.6486,0.6463,0.0102,0.2642,0.1184,0.0646,0.2596,0.3155,0.0599,0.1059,1.2959,-0.0172,0.0644,0.5773,0.0118,3840185000.0,0.32,1520516000.0,2319669000.0,47323000.0,80607000.0,1227625000.0,1092044000.0,61647000.0,1035230000.0,375538000.0,0.0,0.0,659692000.0,0.0,659692000.0,1.22,1.21,540033000.0,545477000.0,0.094,0.6041,0.523,0.2856,0.172,0.04,2007408000.0,1096877000.0,659692000.0,13163365000.0,0.1572,5400447000.0,7762918000.0,186152000.0,338141000.0,5610114000.0,2152804000.0,236076000.0,1910616000.0,905707000.0,0.0,0.0,1004909000.0,0.0,1004909000.0,1.86,1.835,540033000.0,545477000.0,0.349,0.5897,0.419,0.1631,0.076,-0.0566,5515806000.0,2146692000.0,1004909000.0,26.637,53.843,0.284,11.6896,2.274,0.4389,0.2171,17.7929,1.404,2.8662,0.077,0.0,0.021,0.0123,1220537000.0,29077152000.0,-10451686000.0,31141622000.0,1592023000.0,2218788500.0,638830000.0,-0.9188,0.073,0.036,0.0533,0.163,5.0,0.467,5.9501,61.0564,50.1595,18.2287,8.2683,5.9327,20.6054,0.188,19.0,0.0257,0.0141,30499758500.0,13804792250.0,28169708500.0,-1.381,24.375,9.0932,0.0389,-1.1247,EOG,65.839996,66.04249997058822,35555770559.868
2013-03-31,0.183,0.4427,0.5269,0.5082,0.5167,0.0075,0.3223,0.1048,0.0483,0.2598,0.2253,0.2421,0.0625,0.7208,0.0329,0.0225,0.4882,0.0101,3356514000.0,0.1959,1366372000.0,1990142000.0,44216000.0,77985000.0,1157068000.0,833074000.0,61921000.0,761019000.0,266294000.0,0.0,0.0,494725000.0,0.0,494725000.0,0.92,0.91,538717000.0,544526000.0,0.085,0.5929,0.497,0.2452,0.147,-0.0809,1669328000.0,822940000.0,494725000.0,12232499000.0,0.1085,4991867000.0,7240632000.0,186978000.0,333261000.0,5487533000.0,1753099000.0,225204000.0,1521625000.0,780630000.0,0.0,0.0,740995000.0,0.0,740995000.0,1.38,1.36,538717000.0,544526000.0,0.34,0.5919,0.41,0.1428,0.061,-0.1159,5014177000.0,1746829000.0,740995000.0,25.535,52.407,-0.504,11.7176,2.0568,0.4589,0.2236,13.2902,1.327,2.8803,0.092,0.0,0.0232,0.0132,1006327000.0,28232613000.0,-10395286000.0,30362384000.0,1717346500.0,2274067500.0,629495000.0,-1.1905,0.055,0.027,0.0448,0.143,5.0,0.446,7.536,67.3824,56.4307,20.8117,7.1229,5.3791,19.4322,0.246,23.0,0.0272,0.0153,29726892000.0,13547421000.0,27400064750.0,-2.632,22.707,7.7567,0.0297,-1.2539,EOG,64.035004,63.82181784848484,34496745249.868004
2012-12-31,-0.0082,-2.2959,-5.184,-5.2955,-5.2727,0.0101,-0.0078,0.1006,0.0394,0.2601,0.1415,0.1568,0.0625,0.4075,0.5676,0.0185,-2.2495,0.0111,3011811000.0,0.0861,1312096000.0,1699715000.0,48660000.0,86679000.0,2077776000.0,-378061000.0,59354000.0,-445822000.0,59177000.0,0.0,0.0,-504999000.0,0.0,-504999000.0,-0.945,-0.94,537804000.0,544128000.0,0.085,0.5643,0.133,-0.1283,-0.168,-0.1075,399876000.0,-386468000.0,-504999000.0,11682636000.0,0.1537,4749892000.0,6932744000.0,185569000.0,331545000.0,5452947000.0,1479797000.0,213552000.0,1280740000.0,710461000.0,0.0,0.0,570279000.0,0.0,570279000.0,1.07,1.05,535155000.0,541524000.0,0.335,0.5934,0.399,0.1279,0.049,-0.1813,4663995000.0,1494292000.0,570279000.0,24.702,50.83,-0.602,11.737,1.6297,0.4751,0.2309,-6.5112,1.228,-2.4301,-0.09,0.0,0.0288,0.0162,665826000.0,27336578000.0,-10461930000.0,29848266000.0,1553922500.0,2056281500.0,636890500.0,-1.2638,0.043,0.021,0.0386,0.128,4.0,0.437,9.1828,64.9525,51.7576,21.3448,7.5182,5.6814,18.3432,0.313,25.0,0.0284,0.0159,29011208000.0,13356304500.0,26730795500.0,-3.958,21.83,6.9973,0.0238,-1.4045,EOG,60.395,59.3660295,32480672580.0
2012-09-30,-0.0841,-0.3553,-0.3428,-0.3448,-0.3483,0.0063,0.129,0.1306,0.0963,0.2061,0.2642,0.1336,0.0625,0.2973,-0.0519,0.129,-0.3624,0.0071,2954855000.0,0.0239,1201463000.0,1753392000.0,45953000.0,92870000.0,1147645000.0,605747000.0,53154000.0,560189000.0,204698000.0,0.0,0.0,355491000.0,0.0,355491000.0,0.665,0.655,535882000.0,541964000.0,0.085,0.5934,0.487,0.2076,0.12,-0.1029,1439194000.0,613343000.0,355491000.0,11443840000.0,0.2518,4497055000.0,6946785000.0,167951000.0,329974000.0,4786352000.0,2160433000.0,210789000.0,1968194000.0,772218000.0,0.0,0.0,1195976000.0,0.0,1195976000.0,2.235,2.21,535882000.0,541964000.0,0.33,0.607,0.459,0.1904,0.105,-0.2046,5255869000.0,2178983000.0,1195976000.0,25.74,52.311,-0.567,11.7662,2.0762,0.4571,0.2249,11.539,1.551,4.0405,0.128,0.0,0.0314,0.0156,1421779000.0,28032491000.0,-10238859000.0,30646762000.0,1414745000.0,2038774000.0,619117500.0,-1.2117,0.091,0.046,0.0555,0.19,6.0,0.438,4.3868,68.6089,50.3889,20.983,8.089,5.6131,18.4841,0.148,16.0,0.0288,0.0147,28226621000.0,13195339500.0,26106350250.0,-4.368,21.355,10.3373,0.0476,-1.4462,EOG,56.025002,55.64176499999999,30022790121.764
2012-06-30,0.0196,0.1725,0.339,0.3333,0.3364,0.0024,0.3453,0.0851,0.1015,-0.041,0.0745,0.1484,0.0625,0.218,0.1676,0.1234,0.1769,0.0039,2909319000.0,0.1319,1111936000.0,1797383000.0,48149000.0,75727000.0,1105044000.0,692339000.0,50775000.0,646239000.0,250461000.0,0.0,0.0,395778000.0,0.0,395778000.0,0.74,0.735,533748000.0,539970000.0,0.085,0.6178,0.518,0.2396,0.136,-0.1783,1505779000.0,697014000.0,395778000.0,11374729000.0,0.4511,4266936000.0,7107793000.0,170467000.0,319364000.0,4603077000.0,2504716000.0,209821000.0,2307226000.0,925863000.0,0.0,0.0,1381363000.0,0.0,1381363000.0,2.585,2.56,533748000.0,539970000.0,0.325,0.6249,0.476,0.2213,0.121,-0.2171,5419766000.0,2517047000.0,1381363000.0,25.021,48.709,-0.972,9.39,0.5253,0.3753,0.1928,13.7275,1.1,3.7789,0.115,0.0,0.026,0.0165,268118000.0,25998577000.0,-9695378000.0,28050156000.0,1327416000.0,2052904500.0,580177000.0,-1.3468,0.107,0.055,0.0679,0.221,6.0,0.45,3.6793,71.7386,44.1249,19.9033,8.5691,5.5408,19.6056,0.126,12.0,0.0281,0.015,27057273750.0,12870434000.0,25296897000.0,-4.627,21.311,11.9962,0.0602,-1.4859,EOG,45.055,47.48099994285713,24048016140.0
2012-03-31,0.4542,1.0663,1.4185,1.3462,1.3077,0.0441,0.1255,0.0854,0.0547,-0.041,0.2564,0.1654,0.039,-0.3311,-0.1591,0.089,1.0546,0.045,2806651000.0,0.4794,1124397000.0,1682254000.0,42807000.0,76269000.0,1122482000.0,559772000.0,50269000.0,520134000.0,196125000.0,0.0,0.0,324009000.0,0.0,324009000.0,0.61,0.6,533348000.0,540484000.0,0.08,0.5994,0.47,0.2032,0.115,-0.3463,1319146000.0,570403000.0,324009000.0,11035660000.0,0.6654,3962489000.0,7073171000.0,163556000.0,311043000.0,4672541000.0,2400630000.0,210299000.0,2204211000.0,923052000.0,0.0,0.0,1281159000.0,0.0,1281159000.0,2.4,2.375,533348000.0,540484000.0,0.32,0.6409,0.463,0.2188,0.116,-0.2369,5111408000.0,2414510000.0,1281159000.0,24.359,47.915,-1.822,9.3945,0.5514,0.3857,0.1961,11.347,1.097,3.3258,0.131,0.0,0.0272,0.0153,269686000.0,25555536000.0,-9521660000.0,27499648000.0,1386020000.0,2064431000.0,521669000.0,-1.9019,0.102,0.052,0.0667,0.219,7.0,0.445,3.6674,75.7376,51.0503,18.5718,7.9621,5.3456,21.1545,0.133,14.0,0.0282,0.0148,26327723250.0,12550945000.0,24787097500.0,-4.901,20.691,11.4813,0.0572,-1.5564,EOG,55.549999,57.07614302857143,29627480866.652
2011-12-30,0.4771,0.6482,1.2488,1.0952,1.0952,0.0576,0.9858,0.1487,0.1676,-0.041,0.3036,0.4204,0.039,0.4507,-0.1988,0.15,0.7329,0.0581,2773015000.0,0.5499,1059259000.0,1713756000.0,31042000.0,85108000.0,1411181000.0,302575000.0,56591000.0,241632000.0,120934000.0,0.0,0.0,120698000.0,0.0,120698000.0,0.22,0.22,531896000.0,538674000.0,0.08,0.618,0.358,0.1075,0.044,-0.197,991750000.0,298223000.0,120698000.0,10126115000.0,0.66,3578370000.0,6547745000.0,171658000.0,304811000.0,4434436000.0,2113309000.0,210363000.0,1909799000.0,818676000.0,0.0,0.0,1091123000.0,0.0,1091123000.0,2.075,2.05,525470000.0,532536000.0,0.318,0.6466,0.458,0.2094,0.108,-0.2343,4636543000.0,2120162000.0,1091123000.0,23.766,46.699,-1.027,9.4176,1.1576,0.3963,0.2017,5.2698,1.29,10.2478,0.364,0.0,0.0307,0.0112,731619000.0,24838797000.0,-8943955000.0,26709918000.0,1282253000.0,1849279500.0,503193000.0,-1.4417,0.089,0.045,0.0609,0.209,7.0,0.417,4.1961,73.3025,52.3101,21.2882,7.8971,5.4757,20.1237,0.153,14.0,0.0301,0.017,25603254000.0,12250079000.0,24284594000.0,-4.515,19.271,10.0786,0.0496,-1.5182,EOG,49.255001,49.449000057142854,26198538011.896
2011-09-30,0.832,161.6292,8.6281,8.25,8.1786,0.0728,0.622,0.2432,0.165,0.3872,0.392,0.5222,0.039,0.4422,0.0246,0.0117,82.2339,0.0599,2885744000.0,0.824,971344000.0,1914400000.0,48469000.0,82260000.0,964370000.0,950030000.0,52186000.0,899221000.0,358343000.0,0.0,0.0,540878000.0,0.0,540878000.0,1.015,1.005,532106000.0,538584000.0,0.08,0.6634,0.556,0.3297,0.187,-0.1499,1603091000.0,951407000.0,540878000.0,9142260000.0,0.5057,3148038000.0,5994222000.0,179362000.0,293707000.0,4008877000.0,1985345000.0,195143000.0,1807740000.0,783642000.0,0.0,0.0,1024098000.0,0.0,1024098000.0,1.935,1.92,532106000.0,538584000.0,0.315,0.6557,0.478,0.2191,0.112,-0.3085,4369526000.0,2002883000.0,1024098000.0,23.48,46.597,-0.813,9.8246,2.6061,0.4184,0.2108,18.2311,1.401,2.3523,0.079,0.0,0.0285,0.0168,1069039000.0,24794678000.0,-8565468000.0,25969373000.0,1073690500.0,1733861500.0,480809000.0,-1.3401,0.088,0.044,0.0592,0.219,6.0,0.389,3.8711,76.9127,49.8916,23.1704,8.5148,5.2728,19.0143,0.163,11.0,0.0321,0.0196,24885430000.0,11647761000.0,23480953000.0,-5.301,17.181,10.2637,0.047,-1.7115,EOG,35.505001,43.37972224999999,18892424062.106
2011-06-30,1.0051,3.2476,3.9368,3.625,3.5833,0.0583,0.6324,0.2309,0.1248,0.3996,0.5796,0.7618,0.039,-0.1092,-0.1774,0.0412,3.1868,0.0598,2570250000.0,0.8927,807489000.0,1762761000.0,41238000.0,67406000.0,1174508000.0,588253000.0,51253000.0,543224000.0,247650000.0,0.0,0.0,295574000.0,0.0,295574000.0,0.555,0.55,531660000.0,538664000.0,0.08,0.6858,0.466,0.2313,0.115,-0.2581,1197421000.0,594477000.0,295574000.0,7838591000.0,0.4261,2713807000.0,5124784000.0,178200000.0,292757000.0,4101164000.0,1023620000.0,175847000.0,869706000.0,457392000.0,0.0,0.0,412314000.0,0.0,412314000.0,0.78,0.775,531660000.0,538664000.0,0.313,0.6538,0.416,0.1334,0.053,-0.4036,3261400000.0,1045553000.0,412314000.0,22.716,45.065,-1.248,9.8301,2.967,0.4327,0.2181,11.5989,1.469,3.7613,0.144,0.0,0.0262,0.016,1161712000.0,23959379000.0,-8244244000.0,25131954000.0,1044942500.0,1562914500.0,423328500.0,-1.5966,0.037,0.019,0.0318,0.133,5.0,0.352,8.4317,87.0836,59.5904,25.1492,7.5015,5.0154,18.5166,0.401,30.0,0.0373,0.0227,23829928000.0,11053830000.0,22268498250.0,-5.951,14.744,5.9458,0.0195,-1.91,EOG,52.275002,52.68513897222223,27792527563.32
2011-03-31,0.2734,0.2402,0.1352,0.1064,0.1304,0.0195,0.5436,0.2721,0.1377,0.868,0.4137,0.5391,0.0694,-0.447,-0.0056,0.1591,0.239,0.0193,1897106000.0,0.384,740278000.0,1156828000.0,50909000.0,70037000.0,884377000.0,272451000.0,50333000.0,225722000.0,91749000.0,0.0,0.0,133973000.0,0.0,133973000.0,0.26,0.26,510400000.0,517638000.0,0.077,0.6098,0.445,0.1455,0.071,-0.3849,844281000.0,276055000.0,133973000.0,6626309000.0,0.3254,2385148000.0,4241161000.0,187093000.0,290088000.0,3665293000.0,575868000.0,154491000.0,436541000.0,259929000.0,0.0,0.0,176612000.0,0.0,176612000.0,0.345,0.345,510400000.0,517638000.0,0.31,0.64,0.403,0.0892,0.027,-0.4676,2669278000.0,591032000.0,176612000.0,23.096,46.132,-1.431,10.2365,3.2686,0.4432,0.2219,5.4846,1.439,7.1469,0.296,0.0,0.0369,0.0268,1097412000.0,23545522000.0,-8159540000.0,24601771000.0,1048795500.0,1486622500.0,397446500.0,-1.7626,0.017,0.008,0.0184,0.089,5.0,0.313,17.2457,101.2962,67.6727,26.5406,6.318,4.4573,16.6722,0.899,58.0,0.0438,0.0282,22794814250.0,10567288500.0,21145074250.0,-6.07,12.983,3.8257,0.0085,-2.0173,EOG,59.255001,54.721250138888884,30243752510.4
2010-12-31,-0.1355,-0.7231,-0.866,-0.8696,-0.8679,0.0039,-0.2484,0.1935,0.0181,0.8675,0.4432,0.5887,0.0694,-5.0004,-0.0492,0.0757,-0.7331,0.0052,1789160000.0,0.0161,628927000.0,1160233000.0,38746000.0,74004000.0,985622000.0,174611000.0,41371000.0,139573000.0,85900000.0,0.0,0.0,53673000.0,0.0,53673000.0,0.105,0.105,502694000.0,509336000.0,0.077,0.6485,0.405,0.1011,0.03,-0.5559,724733000.0,180944000.0,53673000.0,6099896000.0,0.2743,2107075000.0,3992821000.0,187381000.0,280474000.0,3469502000.0,523319000.0,129586000.0,407976000.0,247322000.0,0.0,0.0,160654000.0,0.0,160654000.0,0.32,0.315,501752000.0,509000000.0,0.305,0.6546,0.406,0.0881,0.026,-0.471,2479488000.0,537562000.0,160654000.0,20.354,43.017,-1.978,10.3907,1.5693,0.5105,0.2416,4.3737,1.138,11.605,0.733,0.0,0.0414,0.0217,307347000.0,21624233000.0,-8865155000.0,23838622000.0,942348000.0,1322041500.0,338757500.0,-2.5967,0.016,0.008,0.0174,0.088,4.0,0.307,16.8598,99.6254,66.6154,24.8798,6.4731,4.614,18.0067,0.953,50.0,0.046,0.0307,21540115250.0,10161423000.0,19885960750.0,-5.725,12.157,4.1483,0.0085,-2.0606,EOG,45.705002,45.719000028571415,22975630275.388
2010-09-30,0.6187,-1.1694,-17.8985,-15.0,-15.0,-0.0056,-0.0393,0.1582,0.0568,0.3474,0.4857,0.5871,0.0694,-6.2759,0.0534,0.2953,-1.3313,0.0059,1582075000.0,0.5713,537113000.0,1044962000.0,47307000.0,81310000.0,1056657000.0,-11695000.0,32890000.0,-38813000.0,32093000.0,0.0,0.0,-70906000.0,0.0,-70906000.0,-0.14,-0.14,502030000.0,502030000.0,0.077,0.6605,0.313,-0.0037,-0.045,-0.4903,494965000.0,-5923000.0,-70906000.0,6071598000.0,0.303,1896861000.0,4174737000.0,189387000.0,275263000.0,3171921000.0,1002816000.0,115522000.0,894638000.0,387230000.0,0.0,0.0,507408000.0,0.0,507408000.0,1.02,1.005,502030000.0,502030000.0,0.3,0.6876,0.462,0.1664,0.084,-0.3366,2807234000.0,1010160000.0,507408000.0,20.154,39.728,-1.545,7.5068,0.0554,0.3725,0.189,-0.1801,0.792,-11.0624,-0.55,0.0,0.0514,0.0299,-403855000.0,19944859000.0,-8292290000.0,21747365000.0,750996000.0,1162516000.0,310746500.0,-1.9888,0.05,0.027,0.0349,0.166,4.0,0.319,5.7439,92.6548,53.968,22.92,8.0847,5.2228,19.5387,0.294,26.0,0.0453,0.0312,20301548750.0,10103025500.0,19009569250.0,-4.071,12.094,8.7443,0.0284,-1.7013,EOG,46.485001000000004,45.50374997222224,23336865052.030003
2010-06-30,0.6304,110.5187,4.5839,4.4286,4.4286,0.0254,0.0144,0.1592,0.0827,0.335,0.4207,0.2584,0.0694,-21.5995,0.4612,0.1017,7804.6111,0.0105,1357968000.0,0.5771,478830000.0,879138000.0,50131000.0,64737000.0,738637000.0,140501000.0,29897000.0,110059000.0,50187000.0,0.0,0.0,59872000.0,0.0,59872000.0,0.12,0.12,501650000.0,509006000.0,0.077,0.6474,0.446,0.1031,0.044,-0.4404,605299000.0,139956000.0,59872000.0,5496372000.0,-0.2054,1721052000.0,3775320000.0,186990000.0,256728000.0,2725506000.0,1049814000.0,113039000.0,938008000.0,355498000.0,0.0,0.0,582510000.0,0.0,582510000.0,1.17,1.155,501650000.0,509006000.0,0.295,0.6869,0.497,0.1912,0.106,-0.2502,2732563000.0,1051047000.0,582510000.0,20.195,38.803,-1.192,7.4436,1.296,0.3686,0.1918,4.6813,1.23,11.3752,0.642,0.0,0.0477,0.0369,358006000.0,19465683000.0,-7418521000.0,20991499000.0,690203500.0,987855000.0,275088500.0,-1.8781,0.059,0.032,0.038,0.191,3.0,0.3,5.0584,83.385,53.7997,20.3581,7.9634,5.5639,19.9804,0.252,26.0,0.0467,0.034,19416865250.0,9952929500.0,18328677750.0,-2.741,10.957,9.2981,0.0328,-1.4666,EOG,49.185001,52.52986066666668,24673655751.65
2010-03-31,0.0194,-0.2139,-0.2564,-0.2656,-0.2698,0.0146,0.0238,0.158,0.1045,0.3287,0.5571,0.2903,0.0588,-0.7909,0.0317,0.0427,-0.2186,0.0096,1370693000.0,0.1835,462205000.0,908488000.0,51197000.0,60423000.0,688586000.0,219902000.0,25428000.0,197157000.0,79142000.0,0.0,0.0,118015000.0,0.0,118015000.0,0.235,0.23,500740000.0,507738000.0,0.072,0.6628,0.477,0.1624,0.086,-0.3681,654491000.0,222585000.0,118015000.0,4999443000.0,-0.3009,1564046000.0,3435397000.0,171166000.0,250751000.0,2526066000.0,909331000.0,107953000.0,804393000.0,298461000.0,0.0,0.0,505932000.0,0.0,505932000.0,1.015,1.0,500740000.0,507738000.0,0.29,0.6872,0.501,0.1825,0.101,-0.1607,2504111000.0,912346000.0,505932000.0,20.3,36.963,-1.008,5.5857,0.4595,0.2752,0.1511,8.7535,1.035,5.256,0.306,0.0,0.0441,0.0374,52848000.0,18509068000.0,-6798294000.0,19582975000.0,713580500.0,954360000.0,277847000.0,-1.8135,0.052,0.029,0.0338,0.182,3.0,0.283,5.8049,82.8121,63.4471,22.8564,7.0061,5.2385,17.9935,0.286,28.0,0.0502,0.0342,18592282500.0,9735055250.0,17660445000.0,-1.604,9.984,8.4513,0.03,-1.2736,EOG,46.470001,46.93847213888889,23269388300.74
2009-12-31,-0.003,-0.1326,-0.1323,-0.1344,-0.1359,0.0152,-0.1981,0.1359,0.0984,0.4744,0.0674,0.3924,0.0588,0.4634,-0.1596,0.181,-0.1292,0.0098,1760862000.0,0.0778,418713000.0,1342149000.0,40752000.0,68793000.0,688041000.0,654108000.0,27307000.0,626235000.0,225808000.0,0.0,0.0,400427000.0,0.0,400427000.0,0.805,0.795,500086000.0,507344000.0,0.072,0.7622,0.598,0.3711,0.227,-0.0941,1052479000.0,653542000.0,400427000.0,4786959000.0,-0.3283,1368869000.0,3418090000.0,169592000.0,248274000.0,2447249000.0,970841000.0,100901000.0,872011000.0,325384000.0,0.0,0.0,546627000.0,0.0,546627000.0,1.1,1.085,497992000.0,503768000.0,0.285,0.714,0.527,0.2032,0.114,-0.1213,2522100000.0,972912000.0,546627000.0,19.993,36.231,-0.331,5.593,1.3713,0.2798,0.1544,23.9331,1.367,2.0697,0.089,0.0,0.0391,0.0231,493981000.0,18118667000.0,-6281084000.0,18884356000.0,747056000.0,1050674000.0,224846500.0,-1.2,0.058,0.032,0.0376,0.203,4.0,0.281,5.3463,74.6582,58.8196,19.9561,6.4078,4.5561,21.2899,0.259,27.0,0.0519,0.0354,17876613250.0,9472710250.0,17029105250.0,-1.166,9.613,9.6422,0.0329,-1.1987,EOG,48.650002,45.42671422857143,24329184900.172
2009-09-30,-0.7832,-0.9855,-0.9973,-0.9968,-0.9968,0.0059,-0.4688,0.0877,0.0569,0.4744,-0.4236,0.639,0.2,-5.2396,0.1836,-0.1145,-0.9852,0.0096,1006849000.0,-0.6915,361304000.0,645545000.0,44910000.0,62775000.0,610242000.0,35303000.0,30407000.0,4557000.0,361000.0,0.0,0.0,4196000.0,0.0,4196000.0,0.01,0.01,499070000.0,504844000.0,0.072,0.6412,0.417,0.0347,0.004,-0.1059,420294000.0,34964000.0,4196000.0,4659824000.0,-0.3154,1237633000.0,3422191000.0,177329000.0,237730000.0,2354279000.0,1067912000.0,91937000.0,980868000.0,373196000.0,0.0,0.0,607672000.0,0.0,607672000.0,1.225,1.21,499070000.0,504844000.0,0.28,0.7344,0.556,0.2302,0.13,-0.1553,2591191000.0,1072805000.0,607672000.0,19.071,34.507,-0.214,5.6044,1.2193,0.2939,0.1624,1.1499,1.525,194.5801,7.2,0.0,0.0623,0.0446,630538000.0,17221293000.0,-5871864000.0,18208631000.0,826322500.0,1062293000.0,193400500.0,-1.1306,0.066,0.037,0.0432,0.23,4.0,0.283,5.1463,61.3916,47.3312,18.817,5.6392,4.3866,24.0942,0.229,22.0,0.051,0.0381,17093524000.0,9226824000.0,16487245000.0,-1.45,9.337,11.6689,0.0383,-1.2314,EOG,41.755001,38.13888911111111,20838668349.07
2009-06-30,-0.3454,-0.9951,-1.0937,-1.0972,-1.0986,-0.0117,-0.4088,0.1805,0.2385,1.4385,-0.5358,1.2153,0.2,0.5435,-0.4235,-0.0467,-0.9999,0.0068,861039000.0,-0.214,321824000.0,539215000.0,34307000.0,58760000.0,539197000.0,18000.0,24811000.0,-23556000.0,-6850000.0,0.0,0.0,-16706000.0,0.0,-16706000.0,-0.035,-0.035,496414000.0,496414000.0,0.072,0.6262,0.438,0.0015,-0.019,-0.0307,376847000.0,1255000.0,-16706000.0,6916861000.0,0.5272,1163036000.0,5753825000.0,170362000.0,245848000.0,2329033000.0,3424792000.0,73625000.0,3370263000.0,1210502000.0,0.0,0.0,2159761000.0,0.0,2159761000.0,4.365,4.3,496414000.0,496414000.0,0.268,0.8319,0.712,0.4979,0.312,-0.0856,4923191000.0,3443888000.0,2159761000.0,18.653,33.828,-0.053,5.6344,1.4241,0.3021,0.1666,0.0506,1.858,-40.1879,-2.057,0.0,0.0682,0.0398,1020656000.0,16792752000.0,-5322954000.0,17693168000.0,899411000.0,1049827500.0,176792500.0,-1.0394,0.238,0.134,0.1433,0.498,7.0,0.429,1.7816,37.9969,30.0925,12.8554,7.6904,6.5886,39.1242,0.061,6.0,0.0355,0.0246,16294034500.0,9077379000.0,16140104250.0,-1.192,13.934,46.7761,0.1396,-1.1538,EOG,33.959998999999996,35.885694388888886,16858218943.585999
2009-03-31,-0.0077,-0.2594,-0.3401,-0.3469,-0.3438,0.0018,-0.3465,0.2342,0.2546,0.7765,-0.4474,1.4616,0.5111,-0.2776,0.035,0.0948,-0.2608,0.0104,1158209000.0,0.0213,267028000.0,891181000.0,49623000.0,57946000.0,609769000.0,281412000.0,18376000.0,264775000.0,106065000.0,0.0,0.0,158710000.0,0.0,158710000.0,0.32,0.315,495982000.0,500408000.0,0.068,0.7694,0.581,0.2445,0.137,-0.2433,672480000.0,283151000.0,158710000.0,7151334000.0,0.5884,1112956000.0,6038378000.0,195566000.0,248728000.0,2370501000.0,3667877000.0,57843000.0,3641202000.0,1286529000.0,0.0,0.0,2354673000.0,0.0,2354673000.0,4.76,4.69,495982000.0,500408000.0,0.255,0.8444,0.716,0.5173,0.329,-0.0872,5118050000.0,3699045000.0,2354673000.0,18.379,32.226,-0.568,4.2443,0.1718,0.2309,0.1317,15.4087,1.41,3.8173,0.212,0.0,0.05,0.0428,526442000.0,15983709000.0,-5058433000.0,16720298000.0,784069500.0,991592500.0,170596000.0,-1.4651,0.273,0.152,0.1569,0.517,7.0,0.461,1.8313,39.5267,28.4861,12.3835,9.1208,7.212,41.9197,0.054,4.0,0.0348,0.0273,15075399000.0,8619041250.0,15498108000.0,-1.257,14.419,63.9497,0.162,-1.1446,EOG,27.379998999999998,28.78902780555556,13579986664.018
2008-12-31,0.3057,0.4301,0.2889,0.2653,0.2778,0.0046,0.3807,0.3195,0.2731,0.6008,-0.1352,0.837,0.5111,-0.2179,0.1019,-0.1181,0.4451,0.0129,1633727000.0,0.2439,287477000.0,1346250000.0,48489000.0,58249000.0,595071000.0,751179000.0,18343000.0,735092000.0,273620000.0,0.0,0.0,461472000.0,0.0,461472000.0,0.93,0.92,495238000.0,499746000.0,0.068,0.824,0.687,0.4612,0.282,-0.1891,1121570000.0,753435000.0,461472000.0,7127143000.0,0.6812,1081834000.0,6045309000.0,193886000.0,243708000.0,2278124000.0,3767185000.0,51658000.0,3746539000.0,1309620000.0,0.0,0.0,2436919000.0,443000.0,2436476000.0,4.94,4.86,493324000.0,501084000.0,0.232,0.8482,0.719,0.5329,0.342,-0.0789,5125072000.0,3798197000.0,2436919000.0,18.202,32.209,-0.624,3.8305,0.669,0.2104,0.1189,41.0748,1.195,2.2397,0.073,0.0,0.0357,0.0297,343535000.0,15951226000.0,-4828278000.0,15751999000.0,779182500.0,1137174500.0,145146000.0,-1.2988,0.299,0.165,0.1695,0.533,7.0,0.484,1.9016,57.4713,37.0111,9.6264,9.1469,6.2674,49.1033,0.047,5.0,0.0342,0.0272,13946750250.0,8137787250.0,14739820500.0,-1.14,14.447,73.5258,0.1741,-1.1213,EOG,33.290001000000004,36.534285371428574,16486473515.238003
2008-09-30,2.8163,6.2653,6.6904,6.5904,6.561,0.0142,1.1177,0.3806,0.326,0.4781,0.5446,0.3344,0.3333,1.1462,-0.0231,0.4738,6.3638,0.0151,3263886000.0,2.3097,286707000.0,2977179000.0,37943000.0,70893000.0,584996000.0,2392183000.0,12095000.0,2393952000.0,837667000.0,0.0,0.0,1556285000.0,0.0,1556285000.0,3.15,3.1,494310000.0,501860000.0,0.06,0.9122,0.843,0.7372,0.477,0.0077,2752294000.0,2406047000.0,1556285000.0,6806832000.0,0.7573,1076746000.0,5730086000.0,189402000.0,251506000.0,2194263000.0,3535823000.0,49066000.0,3522527000.0,1185885000.0,0.0,0.0,2336642000.0,3604000.0,2333038000.0,4.735,4.655,494310000.0,501860000.0,0.21,0.8418,0.707,0.5247,0.343,-0.0745,4812567000.0,3571593000.0,2336642000.0,18.045,32.03,0.051,3.8377,1.7924,0.2127,0.1198,198.9291,1.351,0.9877,0.019,0.0,0.0217,0.0116,643437000.0,15832730000.0,-4436253000.0,15010673000.0,863573500.0,1152668500.0,128204500.0,-0.9836,0.306,0.169,0.168,0.525,7.0,0.494,1.8638,71.8984,56.2171,7.8595,7.8822,5.9053,53.0935,0.044,7.0,0.0369,0.0278,12945127000.0,7631686500.0,13774240750.0,-1.026,13.77,72.7916,0.1696,-1.1166,EOG,44.73,47.876666527777786,22110486300.0
